# Response functions for l=2
# Columns:
# 1. Frequency (Hz)
# 2. Radial Response T_A_r (m)
# 3. Horizontal Response T_A_h (m)
# 4. Tidal Radial Response |T_B_r - static| (m)
# 5. Tidal Horizontal Response |T_B_h - static| (m)
3.162278e-04	9.070847e+05	4.442821e+05	9.433292e+05	4.543683e+05
3.176874e-04	9.078104e+05	4.444751e+05	9.440858e+05	4.545677e+05
3.191538e-04	9.085441e+05	4.446700e+05	9.448507e+05	4.547692e+05
3.206269e-04	9.092858e+05	4.448671e+05	9.456240e+05	4.549728e+05
3.221069e-04	9.100357e+05	4.450663e+05	9.464059e+05	4.551787e+05
3.235937e-04	9.107939e+05	4.452675e+05	9.471964e+05	4.553867e+05
3.250873e-04	9.115605e+05	4.454710e+05	9.479956e+05	4.555969e+05
3.265878e-04	9.123356e+05	4.456766e+05	9.488037e+05	4.558094e+05
3.280953e-04	9.131193e+05	4.458844e+05	9.496207e+05	4.560241e+05
3.296097e-04	9.139117e+05	4.460944e+05	9.504469e+05	4.562412e+05
3.311311e-04	9.147129e+05	4.463067e+05	9.512822e+05	4.564606e+05
3.326596e-04	9.155230e+05	4.465212e+05	9.521269e+05	4.566823e+05
3.341950e-04	9.163423e+05	4.467381e+05	9.529810e+05	4.569064e+05
3.357376e-04	9.171706e+05	4.469573e+05	9.538446e+05	4.571330e+05
3.372873e-04	9.180083e+05	4.471789e+05	9.547180e+05	4.573620e+05
3.388442e-04	9.188554e+05	4.474028e+05	9.556011e+05	4.575934e+05
3.404082e-04	9.197120e+05	4.476292e+05	9.564942e+05	4.578274e+05
3.419794e-04	9.205783e+05	4.478580e+05	9.573974e+05	4.580639e+05
3.435579e-04	9.214544e+05	4.480893e+05	9.583108e+05	4.583030e+05
3.451437e-04	9.223404e+05	4.483232e+05	9.592345e+05	4.585447e+05
3.467369e-04	9.232364e+05	4.485596e+05	9.601687e+05	4.587890e+05
3.483373e-04	9.241426e+05	4.487985e+05	9.611135e+05	4.590360e+05
3.499452e-04	9.250592e+05	4.490401e+05	9.620690e+05	4.592856e+05
3.515604e-04	9.259861e+05	4.492843e+05	9.630355e+05	4.595380e+05
3.531832e-04	9.269237e+05	4.495312e+05	9.640130e+05	4.597932e+05
3.548134e-04	9.278720e+05	4.497808e+05	9.650017e+05	4.600512e+05
3.564511e-04	9.288312e+05	4.500331e+05	9.660017e+05	4.603120e+05
3.580964e-04	9.298014e+05	4.502882e+05	9.670133e+05	4.605757e+05
3.597493e-04	9.307828e+05	4.505461e+05	9.680364e+05	4.608423e+05
3.614099e-04	9.317756e+05	4.508069e+05	9.690714e+05	4.611119e+05
3.630781e-04	9.327798e+05	4.510706e+05	9.701184e+05	4.613844e+05
3.647539e-04	9.337956e+05	4.513372e+05	9.711775e+05	4.616600e+05
3.664376e-04	9.348233e+05	4.516067e+05	9.722489e+05	4.619386e+05
3.681290e-04	9.358629e+05	4.518793e+05	9.733328e+05	4.622203e+05
3.698282e-04	9.369146e+05	4.521549e+05	9.744293e+05	4.625052e+05
3.715352e-04	9.379786e+05	4.524335e+05	9.755386e+05	4.627933e+05
3.732502e-04	9.390551e+05	4.527153e+05	9.766609e+05	4.630846e+05
3.749730e-04	9.401443e+05	4.530002e+05	9.777964e+05	4.633791e+05
3.767038e-04	9.412462e+05	4.532884e+05	9.789453e+05	4.636770e+05
3.784426e-04	9.423611e+05	4.535798e+05	9.801077e+05	4.639782e+05
3.801894e-04	9.434893e+05	4.538744e+05	9.812839e+05	4.642828e+05
3.819443e-04	9.446308e+05	4.541724e+05	9.824739e+05	4.645909e+05
3.837072e-04	9.457858e+05	4.544738e+05	9.836782e+05	4.649024e+05
3.854784e-04	9.469546e+05	4.547786e+05	9.848967e+05	4.652175e+05
3.872576e-04	9.481373e+05	4.550868e+05	9.861298e+05	4.655362e+05
3.890451e-04	9.493342e+05	4.553986e+05	9.873776e+05	4.658584e+05
3.908409e-04	9.505454e+05	4.557139e+05	9.886404e+05	4.661844e+05
3.926449e-04	9.517712e+05	4.560328e+05	9.899184e+05	4.665141e+05
3.944573e-04	9.530118e+05	4.563553e+05	9.912118e+05	4.668476e+05
3.962780e-04	9.542673e+05	4.566816e+05	9.925207e+05	4.671849e+05
3.981072e-04	9.555380e+05	4.570116e+05	9.938456e+05	4.675261e+05
3.999447e-04	9.568242e+05	4.573455e+05	9.951865e+05	4.678713e+05
4.017908e-04	9.581260e+05	4.576831e+05	9.965437e+05	4.682204e+05
4.036454e-04	9.594437e+05	4.580247e+05	9.979175e+05	4.685736e+05
4.055085e-04	9.607775e+05	4.583703e+05	9.993080e+05	4.689309e+05
4.073803e-04	9.621276e+05	4.587199e+05	1.000716e+06	4.692923e+05
4.092607e-04	9.634944e+05	4.590735e+05	1.002141e+06	4.696580e+05
4.111497e-04	9.648780e+05	4.594313e+05	1.003583e+06	4.700279e+05
4.130475e-04	9.662787e+05	4.597933e+05	1.005043e+06	4.704022e+05
4.149540e-04	9.676968e+05	4.601595e+05	1.006522e+06	4.707808e+05
4.168694e-04	9.691324e+05	4.605300e+05	1.008019e+06	4.711640e+05
4.187936e-04	9.705860e+05	4.609049e+05	1.009534e+06	4.715516e+05
4.207266e-04	9.720578e+05	4.612842e+05	1.011069e+06	4.719438e+05
4.226686e-04	9.735480e+05	4.616680e+05	1.012622e+06	4.723407e+05
4.246196e-04	9.750569e+05	4.620564e+05	1.014195e+06	4.727423e+05
4.265795e-04	9.765848e+05	4.624494e+05	1.015788e+06	4.731487e+05
4.285485e-04	9.781321e+05	4.628471e+05	1.017401e+06	4.735600e+05
4.305266e-04	9.796990e+05	4.632496e+05	1.019035e+06	4.739762e+05
4.325138e-04	9.812858e+05	4.636568e+05	1.020689e+06	4.743973e+05
4.345102e-04	9.828928e+05	4.640690e+05	1.022365e+06	4.748236e+05
4.365158e-04	9.845204e+05	4.644862e+05	1.024062e+06	4.752550e+05
4.385307e-04	9.861689e+05	4.649084e+05	1.025780e+06	4.756916e+05
4.405549e-04	9.878386e+05	4.653357e+05	1.027521e+06	4.761335e+05
4.425884e-04	9.895299e+05	4.657682e+05	1.029284e+06	4.765808e+05
4.446313e-04	9.912431e+05	4.662060e+05	1.031070e+06	4.770336e+05
4.466836e-04	9.929785e+05	4.666491e+05	1.032880e+06	4.774919e+05
4.487454e-04	9.947366e+05	4.670977e+05	1.034713e+06	4.779558e+05
4.508167e-04	9.965176e+05	4.675518e+05	1.036569e+06	4.784255e+05
4.528976e-04	9.983220e+05	4.680115e+05	1.038451e+06	4.789009e+05
4.549881e-04	1.000150e+06	4.684768e+05	1.040357e+06	4.793823e+05
4.570882e-04	1.002002e+06	4.689480e+05	1.042288e+06	4.798696e+05
4.591980e-04	1.003879e+06	4.694250e+05	1.044245e+06	4.803629e+05
4.613176e-04	1.005781e+06	4.699079e+05	1.046227e+06	4.808625e+05
4.634469e-04	1.007708e+06	4.703969e+05	1.048236e+06	4.813683e+05
4.655861e-04	1.009661e+06	4.708920e+05	1.050273e+06	4.818804e+05
4.677351e-04	1.011641e+06	4.713934e+05	1.052336e+06	4.823990e+05
4.698941e-04	1.013646e+06	4.719011e+05	1.054427e+06	4.829242e+05
4.720630e-04	1.015680e+06	4.724152e+05	1.056547e+06	4.834560e+05
4.742420e-04	1.017740e+06	4.729359e+05	1.058695e+06	4.839946e+05
4.764310e-04	1.019829e+06	4.734632e+05	1.060873e+06	4.845401e+05
4.786301e-04	1.021946e+06	4.739972e+05	1.063080e+06	4.850926e+05
4.808393e-04	1.024093e+06	4.745381e+05	1.065318e+06	4.856521e+05
4.830588e-04	1.026269e+06	4.750860e+05	1.067587e+06	4.862189e+05
4.852885e-04	1.028475e+06	4.756409e+05	1.069887e+06	4.867930e+05
4.875285e-04	1.030711e+06	4.762030e+05	1.072218e+06	4.873746e+05
4.897788e-04	1.032979e+06	4.767725e+05	1.074583e+06	4.879637e+05
4.920395e-04	1.035279e+06	4.773494e+05	1.076980e+06	4.885605e+05
4.943107e-04	1.037611e+06	4.779338e+05	1.079412e+06	4.891652e+05
4.965923e-04	1.039976e+06	4.785259e+05	1.081877e+06	4.897779e+05
4.988845e-04	1.042374e+06	4.791259e+05	1.084377e+06	4.903986e+05
5.011872e-04	1.044807e+06	4.797337e+05	1.086913e+06	4.910275e+05
5.035006e-04	1.047274e+06	4.803497e+05	1.089485e+06	4.916649e+05
5.058247e-04	1.049776e+06	4.809739e+05	1.092095e+06	4.923107e+05
5.081594e-04	1.052315e+06	4.816064e+05	1.094741e+06	4.929652e+05
5.105050e-04	1.054890e+06	4.822475e+05	1.097426e+06	4.936286e+05
5.128614e-04	1.057503e+06	4.828971e+05	1.100150e+06	4.943009e+05
5.152286e-04	1.060154e+06	4.835556e+05	1.102913e+06	4.949823e+05
5.176068e-04	1.062843e+06	4.842231e+05	1.105717e+06	4.956730e+05
5.199960e-04	1.065572e+06	4.848996e+05	1.108563e+06	4.963731e+05
5.223962e-04	1.068342e+06	4.855855e+05	1.111450e+06	4.970829e+05
5.248075e-04	1.071153e+06	4.862807e+05	1.114380e+06	4.978024e+05
5.272299e-04	1.074005e+06	4.869856e+05	1.117354e+06	4.985319e+05
5.296634e-04	1.076900e+06	4.877003e+05	1.120373e+06	4.992715e+05
5.321083e-04	1.079839e+06	4.884249e+05	1.123436e+06	5.000215e+05
5.345644e-04	1.082822e+06	4.891597e+05	1.126547e+06	5.007820e+05
5.370318e-04	1.085851e+06	4.899048e+05	1.129704e+06	5.015532e+05
5.395106e-04	1.088926e+06	4.906605e+05	1.132910e+06	5.023353e+05
5.420009e-04	1.092048e+06	4.914268e+05	1.136164e+06	5.031285e+05
5.445027e-04	1.095218e+06	4.922041e+05	1.139469e+06	5.039331e+05
5.470160e-04	1.098437e+06	4.929925e+05	1.142826e+06	5.047492e+05
5.495409e-04	1.101707e+06	4.937922e+05	1.146234e+06	5.055770e+05
5.520774e-04	1.105027e+06	4.946035e+05	1.149696e+06	5.064168e+05
5.546257e-04	1.108400e+06	4.954266e+05	1.153212e+06	5.072689e+05
5.571857e-04	1.111826e+06	4.962616e+05	1.156784e+06	5.081333e+05
5.597576e-04	1.115306e+06	4.971089e+05	1.160412e+06	5.090105e+05
5.623413e-04	1.118842e+06	4.979687e+05	1.164098e+06	5.099006e+05
5.649370e-04	1.122435e+06	4.988412e+05	1.167844e+06	5.108039e+05
5.675446e-04	1.126086e+06	4.997267e+05	1.171650e+06	5.117207e+05
5.701643e-04	1.129796e+06	5.006254e+05	1.175518e+06	5.126512e+05
5.727960e-04	1.133566e+06	5.015376e+05	1.179449e+06	5.135956e+05
5.754399e-04	1.137399e+06	5.024636e+05	1.183444e+06	5.145544e+05
5.780960e-04	1.141294e+06	5.034037e+05	1.187506e+06	5.155278e+05
5.807644e-04	1.145255e+06	5.043581e+05	1.191634e+06	5.165161e+05
5.834451e-04	1.149281e+06	5.053271e+05	1.195832e+06	5.175195e+05
5.861382e-04	1.153375e+06	5.063111e+05	1.200100e+06	5.185385e+05
5.888437e-04	1.157539e+06	5.073104e+05	1.204441e+06	5.195732e+05
5.915616e-04	1.161772e+06	5.083253e+05	1.208855e+06	5.206242e+05
5.942922e-04	1.166079e+06	5.093560e+05	1.213344e+06	5.216917e+05
5.970353e-04	1.170459e+06	5.104031e+05	1.217910e+06	5.227761e+05
5.997911e-04	1.174915e+06	5.114667e+05	1.222556e+06	5.238777e+05
6.025596e-04	1.179449e+06	5.125474e+05	1.227282e+06	5.249969e+05
6.053409e-04	1.184062e+06	5.136454e+05	1.232091e+06	5.261341e+05
6.081350e-04	1.188756e+06	5.147611e+05	1.236985e+06	5.272898e+05
6.109420e-04	1.193533e+06	5.158950e+05	1.241966e+06	5.284643e+05
6.137620e-04	1.198396e+06	5.170474e+05	1.247036e+06	5.296580e+05
6.165950e-04	1.203346e+06	5.182188e+05	1.252196e+06	5.308714e+05
6.194411e-04	1.208386e+06	5.194095e+05	1.257450e+06	5.321049e+05
6.223003e-04	1.213518e+06	5.206202e+05	1.262800e+06	5.333590e+05
6.251727e-04	1.218743e+06	5.218511e+05	1.268248e+06	5.346343e+05
6.280584e-04	1.224065e+06	5.231029e+05	1.273796e+06	5.359311e+05
6.309573e-04	1.229486e+06	5.243759e+05	1.279447e+06	5.372500e+05
6.338697e-04	1.235008e+06	5.256707e+05	1.285204e+06	5.385915e+05
6.367955e-04	1.240635e+06	5.269878e+05	1.291070e+06	5.399562e+05
6.397348e-04	1.246368e+06	5.283278e+05	1.297047e+06	5.413446e+05
6.426877e-04	1.252211e+06	5.296912e+05	1.303138e+06	5.427573e+05
6.456542e-04	1.258166e+06	5.310786e+05	1.309346e+06	5.441950e+05
6.486344e-04	1.264237e+06	5.324906e+05	1.315675e+06	5.456582e+05
6.516284e-04	1.270427e+06	5.339278e+05	1.322128e+06	5.471475e+05
6.546362e-04	1.276738e+06	5.353909e+05	1.328708e+06	5.486638e+05
6.576578e-04	1.283175e+06	5.368804e+05	1.335418e+06	5.502075e+05
6.606934e-04	1.289741e+06	5.383973e+05	1.342263e+06	5.517796e+05
6.637431e-04	1.296439e+06	5.399420e+05	1.349246e+06	5.533806e+05
6.668068e-04	1.303273e+06	5.415154e+05	1.356370e+06	5.550114e+05
6.698846e-04	1.310247e+06	5.431182e+05	1.363641e+06	5.566728e+05
6.729767e-04	1.317365e+06	5.447512e+05	1.371062e+06	5.583656e+05
6.760830e-04	1.324632e+06	5.464153e+05	1.378637e+06	5.600906e+05
6.792036e-04	1.332051e+06	5.481113e+05	1.386371e+06	5.618487e+05
6.823387e-04	1.339627e+06	5.498400e+05	1.394270e+06	5.636409e+05
6.854882e-04	1.347365e+06	5.516025e+05	1.402336e+06	5.654681e+05
6.886523e-04	1.355270e+06	5.533996e+05	1.410577e+06	5.673313e+05
6.918310e-04	1.363347e+06	5.552323e+05	1.418997e+06	5.692315e+05
6.950243e-04	1.371601e+06	5.571017e+05	1.427602e+06	5.711699e+05
6.982324e-04	1.380037e+06	5.590089e+05	1.436397e+06	5.731474e+05
7.014553e-04	1.388662e+06	5.609549e+05	1.445388e+06	5.751654e+05
7.046931e-04	1.397482e+06	5.629410e+05	1.454582e+06	5.772250e+05
7.079458e-04	1.406502e+06	5.649683e+05	1.463986e+06	5.793274e+05
7.112135e-04	1.415729e+06	5.670381e+05	1.473605e+06	5.814740e+05
7.144963e-04	1.425170e+06	5.691518e+05	1.483447e+06	5.836661e+05
7.177943e-04	1.434833e+06	5.713106e+05	1.493520e+06	5.859052e+05
7.211075e-04	1.444724e+06	5.735160e+05	1.503832e+06	5.881928e+05
7.244360e-04	1.454851e+06	5.757695e+05	1.514389e+06	5.905303e+05
7.277798e-04	1.465223e+06	5.780728e+05	1.525202e+06	5.929195e+05
7.311391e-04	1.475848e+06	5.804273e+05	1.536278e+06	5.953620e+05
7.345139e-04	1.486735e+06	5.828348e+05	1.547627e+06	5.978597e+05
7.379042e-04	1.497893e+06	5.852971e+05	1.559259e+06	6.004143e+05
7.413102e-04	1.509332e+06	5.878160e+05	1.571183e+06	6.030277e+05
7.447320e-04	1.521061e+06	5.903935e+05	1.583412e+06	6.057021e+05
7.481695e-04	1.533093e+06	5.930317e+05	1.595954e+06	6.084396e+05
7.516229e-04	1.545438e+06	5.957327e+05	1.608824e+06	6.112424e+05
7.550922e-04	1.558108e+06	5.984987e+05	1.622031e+06	6.141128e+05
7.585776e-04	1.571115e+06	6.013321e+05	1.635591e+06	6.170533e+05
7.620790e-04	1.584473e+06	6.042354e+05	1.649516e+06	6.200665e+05
7.655966e-04	1.598195e+06	6.072112e+05	1.663821e+06	6.231550e+05
7.691304e-04	1.612296e+06	6.102622e+05	1.678520e+06	6.263219e+05
7.726806e-04	1.626790e+06	6.133913e+05	1.693630e+06	6.295700e+05
7.762471e-04	1.641695e+06	6.166016e+05	1.709168e+06	6.329025e+05
7.798301e-04	1.657026e+06	6.198963e+05	1.725150e+06	6.363227e+05
7.834296e-04	1.672803e+06	6.232787e+05	1.741596e+06	6.398343e+05
7.870458e-04	1.689043e+06	6.267524e+05	1.758526e+06	6.434409e+05
7.906786e-04	1.705767e+06	6.303212e+05	1.775960e+06	6.471463e+05
7.943282e-04	1.722997e+06	6.339891e+05	1.793921e+06	6.509549e+05
7.979947e-04	1.740753e+06	6.377602e+05	1.812432e+06	6.548709e+05
8.016781e-04	1.759061e+06	6.416391e+05	1.831517e+06	6.588990e+05
8.053784e-04	1.777946e+06	6.456305e+05	1.851203e+06	6.630442e+05
8.090959e-04	1.797434e+06	6.497393e+05	1.871518e+06	6.673116e+05
8.128305e-04	1.817553e+06	6.539710e+05	1.892492e+06	6.717069e+05
8.165824e-04	1.838335e+06	6.583312e+05	1.914155e+06	6.762359e+05
8.203515e-04	1.859811e+06	6.628259e+05	1.936543e+06	6.809050e+05
8.241381e-04	1.882016e+06	6.674616e+05	1.959690e+06	6.857207e+05
8.279422e-04	1.904986e+06	6.722451e+05	1.983635e+06	6.906903e+05
8.317638e-04	1.928761e+06	6.771837e+05	2.008418e+06	6.958213e+05
8.356030e-04	1.953382e+06	6.822852e+05	2.034084e+06	7.011220e+05
8.394600e-04	1.978895e+06	6.875579e+05	2.060680e+06	7.066009e+05
8.433348e-04	2.005347e+06	6.930109e+05	2.088254e+06	7.122675e+05
8.472274e-04	2.032790e+06	6.986537e+05	2.116862e+06	7.181316e+05
8.511380e-04	2.061280e+06	7.044967e+05	2.146561e+06	7.242042e+05
8.550667e-04	2.090876e+06	7.105508e+05	2.177413e+06	7.304966e+05
8.590135e-04	2.121643e+06	7.168281e+05	2.209485e+06	7.370214e+05
8.629785e-04	2.153650e+06	7.233413e+05	2.242850e+06	7.437919e+05
8.669619e-04	2.186972e+06	7.301045e+05	2.277586e+06	7.508226e+05
8.709636e-04	2.221690e+06	7.371325e+05	2.313777e+06	7.581292e+05
8.749838e-04	2.257893e+06	7.444418e+05	2.351514e+06	7.657287e+05
8.790225e-04	2.295674e+06	7.520499e+05	2.390899e+06	7.736393e+05
8.830799e-04	2.335140e+06	7.599760e+05	2.432038e+06	7.818812e+05
8.871560e-04	2.376402e+06	7.682411e+05	2.475050e+06	7.904762e+05
8.912509e-04	2.419584e+06	7.768680e+05	2.520064e+06	7.994479e+05
8.953648e-04	2.464821e+06	7.858815e+05	2.567220e+06	8.088224e+05
8.994976e-04	2.512262e+06	7.953091e+05	2.616673e+06	8.186282e+05
9.036495e-04	2.562069e+06	8.051806e+05	2.668592e+06	8.288964e+05
9.078205e-04	2.614421e+06	8.155292e+05	2.723164e+06	8.396616e+05
9.120108e-04	2.669516e+06	8.263911e+05	2.780595e+06	8.509616e+05
9.162205e-04	2.727573e+06	8.378067e+05	2.841113e+06	8.628384e+05
9.204496e-04	2.788833e+06	8.498206e+05	2.904971e+06	8.753385e+05
9.246982e-04	2.853567e+06	8.624824e+05	2.972450e+06	8.885135e+05
9.289664e-04	2.922075e+06	8.758474e+05	3.043862e+06	9.024212e+05
9.332543e-04	2.994693e+06	8.899774e+05	3.119560e+06	9.171261e+05
9.375620e-04	3.071801e+06	9.049420e+05	3.199936e+06	9.327005e+05
9.418896e-04	3.153822e+06	9.208192e+05	3.285435e+06	9.492258e+05
9.462372e-04	3.241239e+06	9.376974e+05	3.376557e+06	9.667942e+05
9.506048e-04	3.334596e+06	9.556770e+05	3.473872e+06	9.855101e+05
9.549926e-04	3.434517e+06	9.748719e+05	3.578028e+06	1.005493e+06
9.594006e-04	3.541712e+06	9.954131e+05	3.689767e+06	1.026878e+06
9.638290e-04	3.657001e+06	1.017451e+06	3.809943e+06	1.049823e+06
9.682779e-04	3.781331e+06	1.041158e+06	3.939542e+06	1.074508e+06
9.727472e-04	3.915801e+06	1.066738e+06	4.079711e+06	1.101143e+06
9.772372e-04	4.061697e+06	1.094425e+06	4.231790e+06	1.129976e+06
9.817479e-04	4.220533e+06	1.124497e+06	4.397357e+06	1.161294e+06
9.862795e-04	4.394100e+06	1.157283e+06	4.578280e+06	1.195440e+06
9.908319e-04	4.584539e+06	1.193175e+06	4.776790e+06	1.232824e+06
9.954054e-04	4.794425e+06	1.232645e+06	4.995569e+06	1.273936e+06
1.000000e-03	5.026884e+06	1.276266e+06	5.237878e+06	1.319375e+06
1.004616e-03	5.285751e+06	1.324741e+06	5.507714e+06	1.369873e+06
1.009253e-03	5.575782e+06	1.378941e+06	5.810034e+06	1.426338e+06
1.013911e-03	5.902948e+06	1.439961e+06	6.151062e+06	1.489911e+06
1.018591e-03	6.274849e+06	1.509192e+06	6.538720e+06	1.562043e+06
1.023293e-03	6.701311e+06	1.588435e+06	6.983250e+06	1.644611e+06
1.028016e-03	7.195263e+06	1.680059e+06	7.498130e+06	1.740083e+06
1.032761e-03	7.774073e+06	1.787245e+06	8.101461e+06	1.851775e+06
1.037528e-03	8.461622e+06	1.914367e+06	8.818137e+06	1.984249e+06
1.042317e-03	9.291684e+06	2.067613e+06	9.683363e+06	2.143952e+06
1.047129e-03	1.031363e+07	2.256027e+06	1.074860e+07	2.340311e+06
1.051962e-03	1.160262e+07	2.493374e+06	1.209220e+07	2.587676e+06
1.056818e-03	1.327895e+07	2.801691e+06	1.383954e+07	2.909016e+06
1.061696e-03	1.554796e+07	3.218586e+06	1.620466e+07	3.343534e+06
1.066596e-03	1.879122e+07	3.813955e+06	1.958530e+07	3.964084e+06
1.071519e-03	2.380742e+07	4.734089e+06	2.481399e+07	4.923155e+06
1.076465e-03	3.259650e+07	6.345308e+06	3.397537e+07	6.602584e+06
1.081434e-03	5.197882e+07	9.896870e+06	5.417870e+07	1.030455e+07
1.086426e-03	1.301343e+08	2.421366e+07	1.356447e+08	2.522773e+07
1.091440e-03	2.506549e+08	4.553266e+07	2.612741e+08	4.747297e+07
1.096478e-03	6.338529e+07	1.122961e+07	6.607204e+07	1.171695e+07
1.101539e-03	3.612305e+07	6.234605e+06	3.765501e+07	6.510399e+06
1.106624e-03	2.518292e+07	4.229231e+06	2.625147e+07	4.420124e+06
1.111732e-03	1.928401e+07	3.147210e+06	2.010269e+07	3.292314e+06
1.116863e-03	1.559450e+07	2.469846e+06	1.625688e+07	2.586303e+06
1.122018e-03	1.306902e+07	2.005667e+06	1.362443e+07	2.102507e+06
1.127197e-03	1.123186e+07	1.667533e+06	1.170944e+07	1.750097e+06
1.132400e-03	9.835444e+06	1.410096e+06	1.025387e+07	1.481803e+06
1.137627e-03	8.738206e+06	1.207429e+06	9.110146e+06	1.270599e+06
1.142878e-03	7.853355e+06	1.043631e+06	8.187807e+06	1.099912e+06
1.148154e-03	7.124707e+06	9.084107e+05	7.428289e+06	9.590146e+05
1.153453e-03	6.514291e+06	7.948125e+05	6.792010e+06	8.406557e+05
1.158777e-03	5.995520e+06	6.979654e+05	6.251258e+06	7.397585e+05
1.164126e-03	5.549224e+06	6.143572e+05	5.786051e+06	6.526619e+05
1.169499e-03	5.161230e+06	5.413910e+05	5.381615e+06	5.766591e+05
1.174898e-03	4.820836e+06	4.771054e+05	5.026796e+06	5.097057e+05
1.180321e-03	4.519809e+06	4.199911e+05	4.713009e+06	4.502285e+05
1.185769e-03	4.251708e+06	3.688677e+05	4.433545e+06	3.969972e+05
1.191242e-03	4.011430e+06	3.227989e+05	4.183081e+06	3.490356e+05
1.196741e-03	3.794870e+06	2.810319e+05	3.957341e+06	3.055593e+05
1.202264e-03	3.598696e+06	2.429550e+05	3.752849e+06	2.659307e+05
1.207814e-03	3.420172e+06	2.080656e+05	3.566754e+06	2.296260e+05
1.213389e-03	3.257029e+06	1.759471e+05	3.396693e+06	1.962108e+05
1.218990e-03	3.107373e+06	1.462511e+05	3.240690e+06	1.653220e+05
1.224616e-03	2.969609e+06	1.186837e+05	3.097081e+06	1.366534e+05
1.230269e-03	2.842383e+06	9.299560e+04	2.964457e+06	1.099452e+05
1.235947e-03	2.724540e+06	6.897362e+04	2.841613e+06	8.497515e+04
1.241652e-03	2.615087e+06	4.643440e+04	2.727515e+06	6.155219e+04
1.247384e-03	2.513169e+06	2.521941e+04	2.621269e+06	3.951103e+04
